Meter(V) Fluke 101 (V)
-60.37, -60.4
-54.77, -54.88
-49.90, -50.00
-44.78, -44.73
-39.92, -39.98
-34.87, -34.93
-29.86, -29.93
-24.88, -24.93
-19.90, -19.94
-14.92, -14.96
-9.948, -9.96
-4.968, -4.979
-0.984, -0.986
0.000, 0.000
0.988, 0.988
4.970, 4.982
9.950, 9.97
14.93, 14.96
19.90, 19.95
24.88, 24.94
29.87, 29.93
34.84, 34.91
39.92, 40.00
44.86, 44.94
49.77, 49.88
55.12, 55.32
60.69, 60.7
